Cycle	Time	Temp	Scoe0	D11A0	Scoe1	D11A1	Scoe5	D11A5	Scoe10	D11A10	Scoe50	D11A50	Scoe100	D11A100	Scoe150	D11A150	Scoe200	D11A200
1	0	28	159	125	200	188	469	500	1258	842	11847	5855	23436	18824	33667	29499	42305	39888
2	3.2	28.3	189	115	210	173	449	474	1100	831	10763	6033	22483	17906	33350	28938	41302	40427
3	6.4	28.2	167	108	204	193	441	464	1056	825	10800	5623	22536	18491	32580	28892	40727	39758
4	9.6	28.2	159	115	214	173	425	471	1000	816	10607	5710	22317	18342	32968	28592	40424	40013
5	12.9	28.2	156	113	190	193	437	435	990	737	10450	5774	22052	16994	32842	28551	40640	39488
6	16.1	28	153	115	202	196	418	449	957	763	10599	5661	21912	18502	32254	28581	40052	39778
7	19.3	28.2	152	130	198	202	384	448	914	721	10092	5713	21897	16899	32865	28605	39647	39147
8	22.5	28.2	137	117	186	203	393	436	885	703	10480	5573	21558	18039	32704	28675	39449	39430
9	25.7	28	150	124	186	179	372	418	891	643	9822	5498	21288	17916	32241	28455	39400	38465
10	28.9	28.2	145	131	183	211	368	415	819	668	10210	5457	21437	17849	32178	28399	39070	39006
11	32.2	28	152	106	193	190	350	442	789	641	10409	5330	21345	16271	32484	28951	39220	38434
12	35.4	28.2	159	121	193	176	368	422	769	616	9626	5219	21030	17682	31086	28198	39121	39103
13	38.6	28.2	158	132	192	186	341	452	703	621	9899	5184	20804	17292	32205	28733	38627	38691
14	41.8	28.2	142	132	191	190	381	428	719	647	9469	5061	20595	17009	32333	28762	38712	38698
15	45	28	147	132	184	203	349	449	707	613	9790	5136	20879	16831	31718	28618	38489	37910
16	48.2	28.2	151	110	193	193	362	416	689	577	9050	4926	20754	17053	32246	28505	37890	38687
17	51.5	28.2	146	115	185	175	363	461	658	639	9555	4846	20453	17159	31980	28436	38489	38640
18	54.7	28.3	151	129	190	202	374	439	626	633	9057	4799	20642	16722	31676	28380	38400	38698
19	57.9	28.2	152	112	181	186	351	440	664	628	9253	4646	19865	16725	31317	28071	37788	37842
20	61.1	28.2	166	120	188	195	362	440	609	589	9577	4778	20741	15800	30714	27993	37792	38717
21	64.3	28.2	144	132	194	189	367	456	617	620	8592	4665	20017	16343	31231	28415	37080	37228
22	67.5	28.2	145	128	193	202	373	464	624	631	8486	4507	20299	15069	31573	28211	37475	38015
23	70.7	28.3	149	129	187	199	354	412	614	606	8804	4676	19907	16235	31239	28480	38193	36057
24	74	28.2	156	123	184	197	368	428	635	626	8682	4621	19638	16328	31146	27783	36886	38201
25	77.2	28.3	159	135	195	195	357	440	581	635	8313	4697	19939	15847	31079	27706	37255	37760
26	80.4	28.2	160	120	188	180	369	451	622	628	8575	4555	19797	16150	30665	27730	36537	37656
27	83.6	28.3	156	135	178	199	345	448	630	595	7963	4439	19158	16398	30829	27934	36504	37882
28	86.8	28.2	148	127	197	193	358	449	587	627	8421	4396	19407	15398	30802	28296	36781	38177
29	90	28.3	145	138	197	199	376	446	570	615	7746	4536	19364	16298	30634	27867	36089	38119
30	93.3	28.1	149	126	196	193	347	446	595	618	7638	4465	19474	15924	30067	28036	36165	38182
31	96.5	28.3	147	125	199	182	347	457	624	604	8099	4492	19006	16205	29925	28075	36490	37411
32	99.7	28.2	154	122	191	198	368	479	612	632	7476	4334	19052	16124	30609	28005	35802	37730
33	102.9	28.3	135	128	198	213	342	446	596	635	7333	4433	18980	15961	30266	27931	35786	37747
34	106.2	28.3	146	140	183	192	353	445	605	616	7177	4271	18781	15946	30138	27364	35686	38001
35	109.4	28.2	149	127	197	193	325	432	597	603	7051	4264	18748	16139	30340	27674	35633	37997
36	112.6	28.2	145	132	187	202	359	417	624	575	7068	4228	18902	15975	30303	27354	35564	38113
37	115.8	28.2	143	131	186	191	356	416	592	640	7100	4396	18766	15958	29406	27961	35129	37473
38	119	28.2	136	121	197	199	348	422	597	608	7270	4334	18631	15831	28777	27443	35414	37753
39	122.3	28.3	146	134	182	197	332	426	605	616	7340	4431	18682	14952	29512	27734	35534	37441
40	125.5	28.2	153	121	184	193	352	432	595	619	6954	4164	18355	15955	29078	27477	35296	37651
41	128.7	28.3	155	114	184	199	364	423	601	600	6321	4278	18561	15947	29149	27705	35068	37318
42	131.9	28.2	150	131	193	195	332	429	579	632	6939	4285	18163	15259	28592	27689	35252	37720
43	135.1	28.3	142	126	194	210	371	428	615	587	6316	4219	18110	15983	29054	27702	35200	37736
44	138.3	28.3	140	121	177	197	339	440	579	613	6731	4288	18210	15111	28600	27581	34763	38247
45	141.5	28.3	154	111	186	204	374	429	587	614	6118	4285	18387	15927	28952	27640	34776	37508
46	144.8	28.3	141	117	175	194	331	432	613	602	6000	4436	18110	16121	28418	27606	34953	37358
47	148	28.2	131	125	187	193	358	415	606	584	6487	4390	18255	16061	28316	27491	34740	37717
48	151.2	28.2	167	127	186	205	356	430	606	637	6392	4328	18018	14907	28482	27683	34506	37499
49	154.4	28.3	153	126	196	200	356	418	582	602	5983	4395	17750	15932	27696	27801	34489	37770
50	157.6	28.3	158	121	172	190	362	428	596	610	6224	4451	17599	15230	28065	27854	35009	37080
51	160.8	28.2	146	117	202	197	360	437	593	608	5753	4382	17853	16048	27971	27641	34436	38098
52	164	28.3	150	121	174	173	348	460	587	604	5543	4416	17931	16099	28613	27678	34659	37522
53	167.3	28.2	140	124	174	190	326	429	598	604	5904	4395	17496	15165	27996	27907	34704	37019
54	170.5	28.2	135	128	201	195	323	444	617	586	5657	4509	17595	15738	28073	27859	34697	37889
55	173.7	28.2	153	129	197	197	332	433	585	607	5441	4603	17369	16466	27761	27860	34622	37417
56	176.9	28.3	146	119	184	201	371	410	593	599	5781	4594	17327	16053	26592	27924	35098	37647
57	180.1	28.3	164	122	186	196	339	439	604	615	5356	4629	17480	16420	27601	27951	34470	37083
58	183.3	28.2	147	131	194	200	351	445	577	583	5645	4628	17241	15716	27910	27944	34605	38108
59	186.5	28.2	147	132	189	208	332	424	557	588	5244	4556	17556	16044	28098	27848	34773	37862
60	189.8	28.2	142	123	195	206	336	441	605	577	5267	4663	17176	16224	27639	28163	34479	37601
61	193	28.3	152	120	189	195	348	421	600	604	5505	4784	16808	16289	28277	28133	35057	38383
62	196.2	28.2	141	125	183	190	328	434	599	582	5456	4767	16756	15523	28072	28501	34844	38941
63	283.6	28.3	156	175	195	262	189	509	465	577	4368	6864	16465	19755	28561	30445	36524	41790
64	286.8	28.2	156	171	187	254	195	510	463	604	4540	6709	16617	19630	28516	31253	36253	42304
65	290	28.3	147	164	182	244	183	495	466	592	4557	6847	16501	19898	27857	31227	35921	41767
66	293.3	28.2	152	157	176	260	192	489	486	593	4779	7075	16681	18366	27207	31225	36021	43419
67	296.5	28.2	163	184	165	247	173	485	465	631	4716	7128	16538	18301	28791	31350	35739	42531
68	299.7	28.2	150	170	182	250	185	476	485	587	4553	7174	16605	20253	28319	31968	36085	42510
69	302.9	28.2	166	166	178	251	166	459	445	548	4881	7064	16332	18489	28339	31916	36109	41824
70	306.1	28.3	155	160	176	248	166	504	455	533	4393	7129	16546	19995	28885	31431	35572	42502
71	309.3	28.2	144	182	171	257	167	489	453	596	4670	7308	16682	20132	28656	32781	35888	42195
72	312.5	28.3	154	168	167	258	160	492	446	580	4716	7217	16732	20489	28692	31849	36286	42507
73	315.8	28.2	149	176	176	251	157	493	449	575	4744	7079	16390	18449	28845	32325	36550	41412
74	319	28.3	140	175	168	268	156	486	443	594	4469	7334	16686	20380	28947	32410	36688	42319
75	322.2	28.2	154	177	173	232	163	499	434	596	4279	7320	16409	18670	29318	31885	36314	41485
76	325.4	28.4	156	178	166	259	176	489	417	603	4360	7423	16657	20268	29058	32153	35910	41808
77	328.6	28.3	157	171	179	250	163	501	420	577	4370	7370	16289	18743	28929	32326	36348	42294
78	331.8	28.2	148	148	158	258	175	481	419	569	4557	7354	16768	20320	28692	32261	36301	42140
79	335	28.4	152	163	172	232	152	487	395	575	4729	7367	16107	19018	28631	32427	36477	42912
80	338.2	28.2	155	161	169	251	170	483	399	587	4290	7436	16497	20466	28499	32489	36181	41782
81	341.5	28.4	143	164	171	227	165	486	389	549	4518	7333	16281	18988	28713	31850	36022	41673
82	344.7	28.3	153	169	175	264	161	482	392	572	4252	7479	16680	20318	28541	32069	36477	42451
83	347.9	28.3	156	166	165	234	164	490	390	586	4520	7541	16125	18573	28849	32066	36005	42683
84	351.1	28.3	155	164	166	245	153	485	367	586	4242	7593	16393	20464	28475	31820	36270	42069
85	354.3	28.2	149	166	180	245	157	476	360	588	4167	7669	16619	20233	28222	31808	36334	41759
86	357.5	28.3	154	169	168	231	165	518	397	590	4180	7688	16370	20650	28230	31885	35961	42539
87	360.7	28.3	142	161	152	242	157	504	364	557	4220	7639	16364	20211	28813	32033	35699	40544
88	364	28.3	154	161	170	259	156	489	366	596	4458	7717	16192	18560	28833	32303	36050	42662
89	367.2	28.3	154	169	178	242	172	456	361	584	4236	7892	16451	20559	28512	31813	35852	42334
90	370.4	28.4	160	171	180	280	153	488	341	581	4491	7797	16557	20606	28844	31896	35980	42112
91	373.6	28.4	146	175	171	256	141	487	361	582	4370	7874	16619	20448	28755	32089	35914	42675
92	376.8	28.4	153	163	175	233	158	491	347	609	4522	7737	16127	18984	28050	31999	36040	42026
93	380	28.4	141	166	173	250	158	462	335	576	4213	8029	16311	20564	29010	32163	36357	42269
94	383.3	28.3	165	172	170	244	140	487	357	592	4364	8047	16146	20370	28536	32500	36277	42363
95	386.5	28.4	137	159	167	246	168	484	331	577	4194	7979	16193	20426	29012	31799	36060	42208
96	389.7	28.2	149	185	186	237	154	472	320	565	4147	8007	16341	20406	28620	32811	35961	42758
97	392.9	28.3	156	174	165	243	148	497	331	601	4559	7865	16096	19314	28402	32413	35629	41923
98	396.1	28.2	141	181	158	249	162	478	338	576	4479	7952	16313	19979	29304	32168	36271	42804
99	399.4	28.2	157	171	168	218	164	496	314	608	4518	8082	16174	19574	28988	32303	36382	42583
100	402.6	28.4	137	174	179	252	166	472	322	613	4047	8144	16215	20557	28497	32387	36035	42497
101	405.8	28.3	145	171	168	249	157	509	344	603	4470	8422	16195	19460	29085	32547	35734	42325
102	409	28.4	142	165	170	242	171	495	325	566	4313	8266	16274	20398	28731	32096	36365	42672
103	412.2	28.4	141	166	166	218	157	460	328	556	4520	8225	15865	19906	28459	32021	36617	43389
104	415.4	28.4	150	149	179	234	174	489	303	586	4278	8252	16468	20821	28495	32194	36338	43108
105	418.6	28.4	138	185	177	232	154	468	327	585	4543	8237	16313	19495	28567	32674	36343	43063
106	421.8	28.3	141	168	172	246	162	463	318	579	4389	8412	16435	20639	28539	32116	35865	42977
107	425	28.4	136	163	166	255	155	460	315	581	4403	8546	16188	20022	28069	32729	36145	42892
108	428.3	28.4	154	166	158	250	162	489	292	585	4100	8474	16313	20922	28689	32688	36161	42866
109	431.5	28.2	143	168	173	246	166	465	308	613	4466	8568	16032	19557	28935	32583	35790	40849
110	434.7	28.2	142	179	161	240	149	465	294	602	4550	8510	16140	20072	28942	33055	36142	43067
111	437.9	28.4	160	158	175	240	165	491	295	594	4298	8451	16281	20676	28635	32766	37055	43233
112	441.1	28.4	157	163	171	248	161	462	281	585	4210	8487	16197	20923	28871	33108	36591	43349
113	444.3	28.3	143	177	162	245	148	461	284	548	4611	8678	16389	20021	28402	32764	36886	43040
114	447.6	28.3	147	156	163	239	162	485	282	597	4207	8736	16109	19828	28363	33120	36672	43372
115	450.8	28.3	146	171	174	221	153	493	308	571	4183	8725	16292	20728	28375	33123	36325	42372
116	454	28.4	143	174	167	221	171	489	264	576	4326	8837	16331	21208	28254	32740	36437	43083
117	457.2	28.3	143	162	171	237	156	479	277	572	4451	8951	16165	20774	28516	33046	36669	42959
118	460.4	28.3	170	174	149	234	159	497	266	599	4126	8831	16350	20873	28488	33053	35993	42630
119	463.6	28.3	142	173	162	261	161	480	248	588	4269	9016	16464	21214	28257	33068	36353	43107
120	466.8	28.4	152	174	173	236	168	473	256	576	4555	8808	16314	20081	28502	32929	35954	43061
121	470.1	28.3	149	173	181	243	164	487	280	582	4196	8877	16309	21073	28787	33071	36524	43704
122	473.3	28.4	154	164	153	236	154	473	251	560	4185	9002	16309	21020	28610	32851	36136	43854
123	476.5	28.4	143	179	164	237	167	496	241	593	4395	8973	16308	21092	28641	32600	36824	43384
124	479.7	28.4	160	169	170	242	157	450	251	574	4429	9012	16593	21099	28460	33305	36279	43347
125	482.9	28.3	153	157	183	235	173	473	227	560	4309	9099	16364	21328	28559	32844	36516	43545
126	486.1	28.4	136	163	179	237	171	458	241	561	4198	9211	16678	20834	28303	33145	36967	42846
127	489.4	28.4	156	180	156	241	160	477	230	584	4373	9218	16755	21214	28411	33324	36789	42757
128	492.6	28.3	159	167	161	242	170	451	216	591	4389	9194	16312	21606	28791	33376	36483	43769
129	495.8	28.4	151	157	166	236	160	482	224	581	4315	9092	16550	20349	28568	32980	37076	43348
130	499	28.4	145	168	163	238	176	481	227	623	4141	9112	16507	21485	28888	33291	36909	42921
131	502.2	28.3	150	163	172	245	159	477	232	588	4510	9140	16456	20207	28826	33241	36794	43670
132	505.4	28.4	155	156	169	238	164	470	201	580	4067	9241	16740	21454	28798	33174	37151	43716
133	508.6	28.4	144	175	171	232	159	490	224	581	4398	9404	16546	21570	27888	33169	37114	43130
134	511.9	28.3	149	162	162	260	161	460	204	592	4047	9159	16582	21410	28735	33056	36519	43540
135	515.1	28.4	153	158	169	243	174	467	206	595	4316	9363	16720	21200	28511	33360	37320	42896
136	518.3	28.4	146	163	163	250	158	466	206	576	4467	9385	16642	20766	28891	33725	37153	43240
137	521.5	28.4	155	181	174	255	166	456	194	602	4124	9445	16525	21615	28539	33342	37648	43269
138	524.7	28.4	145	161	165	238	160	474	196	625	4418	9343	16881	20576	28615	33551	37108	43307
139	527.9	28.4	147	147	175	258	160	474	202	612	4100	9572	16656	21760	29068	32881	36609	43441
140	531.1	28.6	141	167	169	251	160	506	200	590	4466	9382	16431	21344	29163	33178	36643	42871
141	534.4	28.4	149	170	162	258	154	467	191	581	4192	9505	16615	21865	29207	33761	36989	43506
142	537.6	28.4	156	176	171	228	173	487	205	559	4315	9642	16440	21877	28967	33495	36836	43483
143	540.8	28.4	149	171	160	224	148	443	189	583	4260	9498	16384	21709	28739	33406	36312	43537
144	544.1	28.4	143	172	176	226	155	466	189	575	4277	9580	16556	21804	28289	32878	36476	43775
145	547.3	28.4	146	181	174	251	167	461	196	588	4429	9556	16579	20904	28766	33413	36792	43335
146	550.5	28.4	177	170	153	227	165	476	177	600	4306	9490	16379	21456	28722	32999	36944	43898
147	553.7	28.3	152	170	151	234	159	473	177	594	4489	9621	16420	21851	28561	33269	36292	43781
148	556.9	28.4	140	161	172	248	173	482	174	565	4121	9559	16267	21834	28988	33214	36405	43204
149	560.1	28.4	163	164	171	258	169	467	166	572	4110	9464	16516	21942	28795	33232	36336	42547
150	563.4	28.4	159	176	157	239	164	456	187	579	4381	9810	16390	20929	29110	33747	36705	44160
151	566.6	28.4	155	163	173	243	150	465	172	607	4074	9665	16319	21709	29008	33271	36689	43280
152	569.8	28.4	156	178	176	236	156	494	183	574	4547	9546	16179	20879	28539	33881	36280	42663
153	573	28.4	150	183	167	234	158	460	179	562	4554	9665	16454	21979	29227	33451	36075	42993
154	576.2	28.4	142	157	172	225	160	456	169	583	4403	9872	16335	22009	28970	33519	36574	43714
155	579.4	28.4	165	164	167	237	173	442	163	587	4414	9842	16378	21808	28559	33360	36509	43682
156	582.6	28.4	144	168	175	225	164	451	167	580	4563	9726	16364	21048	28391	32952	35964	43711
157	585.8	28.4	150	173	166	246	170	487	158	595	4350	9772	16680	21884	28691	33162	36391	44153
158	589	28.4	143	171	179	242	172	470	158	584	4096	9690	16441	22079	28637	33377	36946	43591
159	592.3	28.4	162	172	175	254	158	466	170	579	4127	9886	16237	21960	28928	33674	36569	43602
160	595.5	28.4	141	159	176	237	154	474	148	587	4447	9717	16465	21351	28649	33387	36706	43309
161	598.7	28.4	157	179	166	223	168	468	155	576	4505	9921	16389	21312	28368	33521	36100	43933
162	601.9	28.4	154	183	166	241	172	444	158	588	4223	9957	16416	22268	28665	33764	36707	43560
163	605.1	28.4	152	172	174	246	154	450	145	600	4493	9902	16564	21283	28909	34036	36841	44465
164	608.3	28.4	159	173	169	233	159	482	160	598	4271	9953	16475	22029	29095	34097	36614	43346
165	611.5	28.4	157	177	181	232	156	458	148	613	4415	9952	16600	22620	28660	33482	36395	43806
166	614.7	28.4	149	169	160	225	160	472	149	586	4173	9998	16355	22385	28650	33616	36471	43422
167	618	28.4	140	166	151	235	158	472	141	604	4198	9815	16639	22254	28305	33801	37079	43711
168	621.2	28.4	147	170	174	230	137	444	143	580	4475	10136	16365	20951	28915	34112	36477	43927
169	624.4	28.4	168	157	173	222	160	470	141	594	4170	10058	16599	22331	28583	33582	36147	44486
170	627.6	28.4	155	170	155	231	158	447	125	569	4524	9964	16465	21758	28625	33848	36030	44133
171	630.8	28.4	138	158	166	254	161	479	135	608	4230	10180	16453	22361	29154	33791	36221	44367
172	634	28.4	158	169	172	222	152	459	134	561	4491	10113	16537	21356	28418	34362	36835	44177
173	637.2	28.5	147	169	180	249	164	466	138	589	4152	10215	16586	22478	28776	33678	36627	44160
174	640.5	28.4	150	171	157	237	143	448	123	596	4526	10215	16378	22161	28443	33702	36396	44113
175	643.7	28.4	160	162	163	237	152	463	129	583	4500	10052	16045	21607	28840	33750	36432	44283
176	646.9	28.4	135	177	175	232	162	442	135	579	4229	10348	16457	22198	29177	33896	36649	43828
177	650.1	28.4	143	163	180	215	160	453	125	596	4493	10155	16020	21596	28484	33985	37084	44044
178	653.3	28.4	162	163	174	244	166	468	117	576	4123	10245	16623	22295	28590	33978	37015	43751
179	656.5	28.4	150	164	182	235	159	446	126	554	4263	10177	16464	21566	28624	34159	36645	43826
180	659.7	28.4	157	171	187	230	166	449	132	572	4171	10521	16728	22431	28887	33958	36750	43786
181	662.9	28.6	162	167	170	242	155	461	128	624	4326	10277	16595	22322	28806	33858	36909	44827
182	666.2	28.6	153	167	170	234	157	443	126	586	4435	10119	16227	22557	28591	34064	36436	43730
183	669.4	28.5	151	177	182	227	147	468	118	541	4090	10281	16419	21608	28881	34112	36771	44634
184	672.6	28.4	151	186	156	250	157	451	109	587	4414	10541	16406	22363	28762	34201	36814	43959
185	675.8	28.4	161	178	158	250	160	447	123	584	4331	10157	16506	21470	27574	34063	36044	43908
186	679	28.4	163	158	183	218	157	447	128	525	4112	10314	16343	22520	28413	34086	36979	43949
187	682.2	28.4	148	181	156	239	151	439	117	574	4409	10389	16552	21563	28463	34522	36724	43965
188	685.4	28.4	165	169	186	232	154	449	121	609	4270	10392	16604	21607	27620	33618	36520	44535
189	688.7	28.4	164	166	162	250	167	445	123	572	4233	10421	16573	22403	28863	33866	35868	43724
190	691.9	28.4	151	160	183	238	159	441	109	586	4335	10574	16517	22558	28719	34490	36356	43825
191	695.1	28.4	135	172	175	215	165	442	116	589	4068	10545	16558	22426	28934	34995	36343	43996
192	698.3	28.6	134	166	172	229	169	457	120	599	4324	10588	16468	22937	28235	34091	36241	44506
193	701.5	28.5	155	162	167	238	141	458	120	548	4452	10477	16590	22717	28951	33731	36573	44118
194	704.8	28.4	139	174	177	234	144	434	111	591	4496	10515	16607	22929	29101	34459	36728	44190
195	708	28.5	154	175	149	242	159	430	110	536	4366	10538	16408	22652	28786	34133	36471	44051
196	711.2	28.6	156	159	162	225	142	452	112	597	4360	10519	16700	22093	28466	34022	36365	44359
197	714.4	28.5	151	169	166	239	148	460	120	574	4286	10579	16583	22665	28865	34164	36586	43738
198	717.6	28.6	142	157	164	232	159	424	107	572	4372	10627	16377	21949	28561	33850	35920	44540
199	720.8	28.4	144	164	174	241	167	451	115	594	4102	10656	16601	22743	28918	34146	36858	44040
200	724	28.4	151	168	162	231	149	462	115	593	4137	10539	16670	22857	29002	33804	36800	44407
201	727.3	28.6	155	151	173	229	152	442	106	613	4444	10713	16222	22453	27585	34874	36776	44665
202	730.5	28.5	134	170	167	225	145	444	103	572	4461	10476	16658	21606	28886	34619	36874	43897
203	733.7	28.5	153	162	170	240	151	447	101	563	4172	10910	16393	22822	28555	34743	36811	44150
204	736.9	28.5	155	172	172	226	143	446	93	583	4441	10552	16304	21758	28520	34137	36448	43913
205	740.1	28.5	148	177	154	215	144	459	89	593	4094	10591	16520	22610	28871	34644	36180	43871
206	743.3	28.6	145	167	158	243	152	444	95	577	4433	10676	16537	21623	29115	34607	36296	44220
207	746.5	28.4	143	159	158	232	159	453	84	595	4171	10706	16512	22367	28151	34165	36393	43853
208	749.8	28.4	151	172	148	233	155	416	94	595	4404	10629	16498	22146	28706	34462	36857	43961
209	753	28.6	148	168	179	251	146	426	98	551	4242	10773	16599	22904	29135	34413	35954	44150
210	756.2	28.7	152	172	169	242	149	449	95	574	4421	10768	16452	22362	28400	33977	36806	43840
211	759.4	28.4	143	166	188	251	150	433	88	579	4184	10800	16620	22637	28898	33839	36376	43771
212	762.6	28.5	138	164	168	232	154	423	88	569	4260	10848	16437	22548	28739	34508	36629	44106
213	765.8	28.7	139	157	172	221	153	449	90	578	4050	10769	16382	22943	28500	34534	36325	44260
214	769.1	28.5	142	173	153	226	138	420	94	609	4473	10768	16227	22035	28542	34280	36475	44714
215	772.3	28.6	150	172	166	221	161	439	88	572	4135	10604	16348	22692	28813	34241	36400	43272
