Cycle	Time	Temp	A5	A6	B5	B6	C5	C6	D5	D6	E5	E6	F5	F6	G5	G6	H5	H6
1	0	26.4	1.010800004	1.0173000097	0.8508999944	0.8105999827	0.5468000174	0.5389000177	0.6457999945	0.6617000103	0.6348000169	0.632700026	0.6445000172	0.6439999938	0.4830000103	0.4898000062	0.5853000283	0.581799984
2	7.7	26.5	1.0105999708	1.0151000023	0.8543999791	0.8102999926	0.5480999947	0.5536000133	0.6524000168	0.6668999791	0.6352000237	0.633400023	0.6477000117	0.6459000111	0.5167000294	0.5241000056	0.58950001	0.5816000104
3	15.4	26.5	1.0090999603	1.0144000053	0.8521999717	0.8090000153	0.6000999808	0.5684999824	0.6498000026	0.6664999723	0.6331999898	0.6324999928	0.6471999884	0.6455000043	0.5213000178	0.5285000205	0.5892000198	0.5816000104
4	23.1	26.4	1.0104999542	1.0163999796	0.8518999815	0.809499979	0.5566999912	0.5515000224	0.6495000124	0.6640999913	0.6367999911	0.6347000003	0.6467000246	0.6439999938	0.5098999739	0.5261999965	0.5845999718	0.5806999803
5	30.8	26.5	1.0112999678	1.0197000504	0.8496000171	0.8079000115	0.5673999786	0.5333999991	0.6456999779	0.6607999802	0.6360999942	0.6355000138	0.6449999809	0.6434000134	0.5120000243	0.5320000052	0.5834000111	0.5774000287
6	38.4	26.5	1.0099999905	1.0166000128	0.8496999741	0.8083000183	0.5364999771	0.5199000239	0.6453999877	0.662899971	0.6348999739	0.6347000003	0.6450999975	0.6441000104	0.4711000025	0.4925999939	0.5842999816	0.5774000287
7	46.1	26.6	1.0081000328	1.016800046	0.8515999913	0.8105000257	0.549300015	0.5825999975	0.6523000002	0.6697999835	0.6328999996	0.6333000064	0.6475999951	0.6452999711	0.4925999939	0.5368999839	0.5916000009	0.5849999785
8	53.8	26.5	1.0083999634	1.016299963	0.850300014	0.8097000122	0.5813000202	0.5527999997	0.6488999724	0.6679999828	0.635800004	0.6342999935	0.646600008	0.6445000172	0.5146999955	0.5317000151	0.5863000154	0.5802999735
9	61.5	26.5	1.0083999634	1.0164999962	0.8489000201	0.8091999888	0.5695000291	0.5419999957	0.6491000056	0.6669999957	0.6353999972	0.633400023	0.646600008	0.643599987	0.5224000216	0.5404000282	0.5879999995	0.5809999704
10	69.2	26.6	1.0096000433	1.0177999735	0.8506000042	0.8090999722	0.6090999842	0.5374000072	0.6517999768	0.6650999784	0.6338999867	0.6315000057	0.647300005	0.6406000257	0.5271000266	0.5296000242	0.5911999941	0.581700027
11	76.9	26.5	1.00849998	1.0178999901	0.8476999998	0.8087999821	0.5713000298	0.5583999753	0.6481000185	0.665199995	0.6348000169	0.6340000033	0.6463000178	0.6424999833	0.5217000246	0.5363000035	0.5874000192	0.5784000158
12	84.6	26.7	1.0082999468	1.0183999538	0.8478000164	0.8080999851	0.5260000229	0.5383999944	0.6488999724	0.6646000147	0.6338000298	0.6324999928	0.6449999809	0.6417000294	0.4747000039	0.4934999943	0.5870000124	0.5813000202
13	176.4	26.5	1.0008000135	1.0367000103	0.8198000193	0.8130000234	0.5666000247	0.5713999867	0.6441000104	0.6586999893	0.6212000251	0.6276000142	0.6233999729	0.6747000217	0.475300014	0.5156999826	0.5867999792	0.5863000154
14	184.1	26.7	1.0005999804	1.0348000526	0.8199999928	0.8127999902	0.5605999827	0.576399982	0.6477000117	0.6596000195	  	0.6265000105	0.6230999827	0.6744999886	0.4595000148	0.5227000117	0.5867999792	0.5892000198
15	191.8	26.6	1.0013999939	1.0336999893	0.8199999928	0.810100019	0.534799993	0.5530999899	0.6491000056	0.6561999917	0.6197000146	0.628000021	0.6223999858	0.6714000106	0.4765999913	0.4875999987	0.5867000222	0.5874000192
16	199.5	26.5	1.003000021	1.0334000587	0.8206999898	0.8116000295	0.5569000244	0.5623000264	0.6506000161	0.66049999	0.6201999784	0.6276000142	0.6230999827	0.668299973	0.4833999872	0.5103999972	0.5878000259	0.5892000198
17	207.2	26.7	1.0037000179	1.0322999954	0.8213000298	0.8105999827	0.5745000243	0.5006999969	0.6481999755	0.6560000181	0.6201999784	0.628000021	0.6237999797	0.6653000116	0.4772000015	0.5038999915	0.5877000093	0.5853999853
18	214.9	26.7	1.0041999817	1.0329999924	0.8206999898	0.8097000122	0.6108999848	0.5588999987	0.6464999914	0.6553000212	0.6204000115	0.6294000149	0.6215999722	0.663500011	0.511500001	0.5292000175	0.5857999921	0.5859000087
19	222.6	26.6	1.0025999546	1.0306999683	0.8191999793	0.8080000281	0.5658000112	0.5275999904	0.6456000209	0.6531000137	0.6184999943	0.6284999847	0.6233999729	0.6649000049	0.4523000121	0.4726999998	0.5889999866	0.584100008
20	230.2	26.7	1.0018999577	1.0311000347	0.820200026	0.8073999882	0.5666999817	0.5672000051	0.646600008	0.6538000107	0.6179999709	0.6291999817	0.6227999926	0.6560999751	0.4862999916	0.4963000119	0.5907999873	0.5850999951
21	237.9	26.6	1.0006999969	1.0283999443	0.8206999898	0.8072999716	0.5447000265	0.5418999791	0.6495000124	0.6547999978	0.6200000048	0.6277999878	0.6225000024	0.6570000052	0.4663000107	0.5105000138	0.587199986	0.5867999792
22	245.6	26.7	1.0015000105	1.0288000107	0.8194000125	0.8065000176	0.5715000033	0.5593000054	0.6449000239	0.6516000032	0.6193000078	0.6286000013	0.6223999858	0.6622999907	0.4726999998	0.5157999992	0.5888000131	0.5845000148
23	253.3	26.6	1.003000021	1.0278999805	0.8187999725	0.8057000041	0.5465000272	0.5296000242	0.6413000226	0.6516000032	0.6207000017	0.6284999847	0.6215000153	0.658100009	0.4600000083	0.4844999909	0.5838999748	0.5820000172
24	261	26.7	0.9993000031	1.024799943	0.82099998	0.8062000275	0.5788999796	0.5523999929	0.6524000168	0.6568999887	0.6184999943	0.6276000142	0.6225000024	0.6593000293	0.4801000059	0.5141999722	0.5934000015	0.5886999965
25	268.7	26.6	1.002300024	1.0259000063	0.8198999763	0.8054999709	0.5583999753	0.5374000072	0.6481000185	0.6567999721	0.619599998	0.6286000013	0.6212999821	0.66049999	0.4654999971	0.5123000145	0.5889999866	0.5878000259
26	276.4	26.7	1.0024000406	1.0264999866	0.8199999928	0.8032000065	0.5428000093	0.5315999985	0.644299984	0.6495000124	0.619599998	0.6284999847	0.6201000214	0.6603000164	0.4742000103	0.5070999861	0.5857999921	0.5839999914
27	284.1	26.6	1.0020999908	1.0247000456	0.820900023	0.804799974	0.5667999983	0.5447999835	0.6444000006	0.652700007	0.618900001	0.6283000112	0.6230999827	0.6583999991	0.4981999993	0.521600008	0.5911999941	0.5863000154
28	291.8	26.7	1.0062999725	1.0288000107	0.8253999949	0.8080999851	0.5777000189	0.5552999973	0.65200001	0.6582000256	0.6241000295	0.6316999793	0.6259999871	0.6631000042	0.4921999872	0.4889000058	0.590200007	0.5921000242
29	299.5	26.7	1.0081000328	1.0285999775	0.8234999776	0.804799974	0.57099998	0.5636000037	0.649699986	0.6545000076	0.6251999736	0.6331999898	0.6244000196	0.6607999802	0.470299989	0.4939999878	0.5899999738	0.5891000032
30	307.2	26.8	1.0063999891	1.0274000168	0.8235999942	0.806400001	0.5631999969	0.5566999912	0.648999989	0.6542000175	0.6231999993	0.6312999725	0.6243000031	0.6585999727	0.4963999987	0.5166000128	0.5896000266	0.5899000168
31	314.9	26.6	1.0073000193	1.0263999701	0.8245000243	0.8061000109	0.5620999932	0.5643000007	0.6430000067	0.6553999782	0.6222000122	0.6306999922	0.6266999841	0.6611999869	0.4912999868	0.4905999899	0.5942000151	0.5910999775
32	322.6	26.7	1.0059000254	1.0245000124	0.8252000213	0.8037999868	0.5604000092	0.5551000237	0.6523000002	0.6506000161	0.621900022	0.6305000186	0.6255000234	0.6601999998	0.4422000051	0.4930000007	0.5924999714	0.5896000266
33	330.3	26.7	1.0069999695	1.0230000019	0.8241000175	0.8030999899	0.5831999779	0.5500000119	0.6502000093	0.6546999812	0.6230999827	0.6309000254	0.6262999773	0.6585999727	0.4776000082	0.5078999996	0.5938000083	0.5914999843
34	338	26.8	1.005300045	1.0232000351	0.8246999979	0.8030999899	0.5687999725	0.5807999969	0.6528999805	0.6553999782	0.6234999895	0.6316999793	0.6256999969	0.6583999991	0.4857000113	0.4970000088	0.5927000046	0.591899991
35	345.7	26.7	1.0068999529	1.0211999416	0.8231999874	0.8018000126	0.5620999932	0.5450999737	0.6438000202	0.6517000198	0.6247000098	0.6323000193	0.6255000234	0.6572999954	0.4729000032	0.5098000169	0.5906999707	0.5884000063
36	353.4	26.6	1.0082000494	1.0217000246	0.8248000145	0.8007000089	0.5843999982	0.5396999717	0.6481000185	0.6528000236	0.6234999895	0.6324999928	0.6252999902	0.6578999758	0.4948000014	0.5015000105	0.5928000212	0.5898000002
37	361	26.7	1.0052000284	1.0207999945	0.8251000047	0.8004999757	0.5665000081	0.5583000183	0.6506000161	0.6529999971	0.6243000031	0.6309000254	0.6261000037	0.6585999727	0.4866000116	0.508400023	0.5928999782	0.5911999941
38	368.7	26.8	1.0058000088	1.0182000399	0.8234000206	0.7972000241	0.5741999745	0.5461999774	0.647300005	0.6506000161	0.6233000159	0.6317999959	0.6241000295	0.6553999782	0.4715999961	0.4955999851	0.5889999866	0.5874000192
39	376.4	26.7	1.0068999529	1.0170999765	0.8241999745	0.7980999947	0.6000000238	0.5741999745	0.6498000026	0.6529999971	0.6222000122	0.6294000149	0.6256999969	0.6570000052	0.4896999896	0.5074999928	0.5963000059	0.5916000009
40	384.1	26.7	1.0070999861	1.0170999765	0.8230999708	0.7969999909	0.570200026	0.545599997	0.6463999748	0.6518999934	0.6244000196	0.631099999	0.6241000295	0.6567000151	0.4796000123	0.5157999992	0.5917000175	0.5906999707
41	391.8	26.7	1.0063999891	1.0154000521	0.8230000138	0.7973999977	0.5806000233	0.5924000144	0.6464999914	0.6507999897	0.6223999858	0.6306999922	0.625	0.6542000175	0.5072000027	0.5257999897	0.5931000113	0.5896999836
42	399.5	26.8	1.0070999861	1.013299942	0.8237000108	0.7957000136	0.5978000164	0.5720999837	0.6460000277	0.6510999799	0.6243000031	0.632799983	0.6256999969	0.6495000124	0.5088999867	0.5074999928	0.5936999917	0.5881000161
43	407.2	26.7	1.0036000013	1.0104000568	0.8245999813	0.7946000099	0.5407999754	0.5605999827	0.6509000063	0.6524000168	0.621999979	0.6291000247	0.6262000203	0.6553000212	0.4727999866	0.5126000047	0.5958999991	0.5932999849
44	414.9	26.8	1.0066000223	1.0121999979	0.8228999972	0.7936999798	0.5827000141	0.5665000081	0.6457999945	0.6500999928	0.6252999902	0.6317999959	0.6248999834	0.6521000266	0.5102999806	0.4803000093	0.5907999873	0.5863999724
45	422.6	26.8	1.004799962	1.010800004	0.8230000138	0.7929000258	0.570299983	0.5914999843	0.6474000216	0.6480000019	0.6241000295	0.6312999725	0.6259999871	0.6546999812	0.5144000053	0.5037999749	0.5922999978	0.5884000063
46	430.3	27	1.0051000118	1.0076999664	0.8230000138	0.7924000025	0.5588999987	0.5318999887	0.6478999853	0.6521999836	0.6233000159	0.6301000118	0.6251000166	0.6531000137	0.4684000015	0.478399992	0.5932000279	0.5913000107
47	438	26.8	1.0048999786	1.0081000328	0.8234000206	0.7914000154	0.5705999732	0.581700027	0.6474999785	0.6498000026	0.6222000122	0.6302000284	0.6248000264	0.6463000178	0.483099997	0.491899997	0.5946000218	0.5889000297
48	445.7	26.8	1.0074000359	1.0082000494	0.8224999905	0.790199995	0.5968000293	0.5616999865	0.6448000073	0.6499999762	0.622600019	0.6298999786	0.6256999969	0.6523000002	0.4875000119	0.5120000243	0.5935999751	0.5921999812
49	453.4	26.7	1.0058000088	1.005300045	0.8234999776	0.7890999913	0.5758000016	0.5419999957	0.6475999951	0.6478999853	0.6241000295	0.6302999854	0.6261000037	0.6539000273	0.4805999994	0.5059000254	0.590200007	0.5932000279
50	461.1	26.8	1.0059000254	1.0039000511	0.8227999806	0.7888000011	0.5450000167	0.5436999798	0.6449000239	0.6474000216	0.6238999963	0.6305000186	0.6254000068	0.6498000026	0.4801999927	0.4923999906	0.5917999744	0.5903000236
51	468.8	26.7	1.0046999454	1.0031000376	0.8220000267	0.7870000005	0.5458999872	0.5415999889	0.6457999945	0.6462000012	0.6237000227	0.630400002	0.6255999804	0.6326000094	0.5116999745	0.4828000069	0.5935999751	0.5904999971
52	476.5	26.7	1.0066000223	1.003000021	0.8223999739	0.7860000134	0.5645999908	0.5414999723	0.6455000043	0.6441000104	0.6245999932	0.6301000118	0.6230000257	0.6452999711	0.480399996	0.4941000044	0.5870000124	0.5882999897
53	484.1	26.8	1.005499959	1.0002000332	0.8227999806	0.7868999839	0.5536999702	0.5644000173	0.6470000148	0.6478999853	0.6243000031	0.6309000254	0.6238999963	0.6492999792	0.4916999936	0.5113999844	0.5899999738	0.5899000168
54	491.8	26.8	1.0062999725	1.0004999638	0.8228999972	0.7849000096	0.5577999949	0.5440000296	0.6488999724	0.6449999809	0.6268000007	0.6320999861	0.6244999766	0.6498000026	0.4979999959	0.5152000189	0.5892999768	0.5859000087
55	499.5	26.9	1.0046999454	0.9981999993	0.8231999874	0.7853000164	0.5629000068	0.5550000072	0.6504999995	0.6484000087	0.6247000098	0.630400002	0.6255999804	0.6464999914	0.5109000206	0.5170000196	0.5935999751	0.5924000144
56	507.2	26.8	1.0053999424	0.9973000288	0.8208000064	0.7814999819	0.554700017	0.5630999804	0.6452999711	0.6402000189	0.6248000264	0.6306999922	0.6231999993	0.6470999718	0.506099999	0.4981000125	0.584800005	0.5875999928
57	514.9	27	1.005499959	0.9959999919	0.8220999837	0.7820000052	0.5588999987	0.5630999804	0.6499999762	0.6448000073	0.6241999865	0.630400002	0.6241999865	0.6468999982	0.4722000062	0.4815999866	0.5921000242	0.5903999805
58	522.6	27	1.005499959	0.9947000146	0.823300004	0.7817000151	0.5821999907	0.5867000222	0.6535999775	0.6445000172	0.6243000031	0.6302999854	0.6247000098	0.6495000124	0.4740999937	0.4647000134	0.5914000273	0.5924999714
59	530.3	27	1.0046000481	0.9927999973	0.8230999708	0.7828999758	0.5350000262	0.5426999927	0.6539000273	0.6503999829	0.6233999729	0.6291999817	0.6256999969	0.6491000056	0.4526999891	0.4851999879	0.5929999948	0.5932999849
60	538	27	1.0049999952	0.992299974	0.8230000138	0.7796000242	0.5640000105	0.5748000145	0.6539999843	0.6438999772	0.6241999865	0.6309999824	0.6256999969	0.6482999921	0.491899997	0.5220999718	0.5950000286	0.5916000009
61	545.7	27	1.0041999817	0.9890999794	0.8227000237	0.7788000107	0.5414999723	0.5527999997	0.6542000175	0.6464999914	0.6229000092	0.6298000216	0.625	0.6462000012	0.4771000147	0.4914000034	0.5950999856	0.5917000175
62	553.4	26.8	1.004799962	0.9882000089	0.8220000267	0.7778000236	0.5363000035	0.5227000117	0.6518999934	0.646600008	0.622699976	0.628000021	0.6248999834	0.6485999823	0.4515999854	0.4984999895	0.5971000195	0.5950000286
63	561.1	26.8	1.0039999485	0.986199975	0.8216000199	0.7767999768	0.5637999773	0.5611000061	0.6500999928	0.6441000104	0.6236000061	0.6294999719	0.6236000061	0.6463999748	0.4945000112	0.4954999983	0.5893999934	0.5903999805
64	568.8	26.8	1.0046000481	0.9876000285	0.8216999769	0.7764000297	0.5638999939	0.5698999763	0.648999989	0.6417999864	0.6244000196	0.6302000284	0.6244000196	0.6438000202	0.4817999899	0.4950000048	0.5904999971	0.5879999995
65	576.5	26.8	1.0044000149	0.9847000241	0.8227000237	0.7764000297	0.5651000142	0.5654000044	0.649600029	0.6434999704	0.6237999797	0.6279000044	0.625	0.6477000117	0.4772999883	0.505400002	0.5911999941	0.5921999812
66	584.2	27	1.0032000542	0.9826999903	0.8235999942	0.7754999995	0.5382000208	0.5483000278	0.6571000218	0.647300005	0.6212999821	0.6297000051	0.6266999841	0.6474999785	0.4837000072	0.5005000234	0.5982999802	0.5935000181
67	591.9	27	1.0041999817	0.9829999804	0.820900023	0.7732999921	0.5580000281	0.543299973	0.6498000026	0.638899982	0.6244999766	0.6294999719	0.6251999736	0.6450999975	0.4842999876	0.4936999977	0.591899991	0.58950001
68	599.5	27	1.0039999485	0.9794999957	0.8217999935	0.7725999951	0.5738000274	0.5465000272	0.648999989	0.6399000287	0.622699976	0.6299999952	0.6241000295	0.6441000104	0.4602999985	0.4763999879	0.5927000046	0.5909000039
69	607.2	27	1.0027999878	0.9801999927	0.820299983	0.7717999816	0.5529999733	0.5468000174	0.6498000026	0.6416000128	0.6240000129	0.6309000254	0.6236000061	0.6424000263	0.4663000107	0.5430999994	0.5910000205	0.5884000063
70	614.9	27	1.0044000149	0.978399992	0.8215000033	0.7691000104	0.5723999739	0.5253000259	0.6485999823	0.6376000047	0.6230999827	0.6298999786	0.6243000031	0.6467999816	0.4844000041	0.4876999855	0.592599988	0.5891000032
71	622.6	27	1.0041999817	0.9765999913	0.8216000199	0.7699999809	0.5619000196	0.5651000142	0.6470000148	0.6387000084	0.6227999926	0.6286000013	0.6247000098	0.6316000223	0.478399992	0.5101000071	0.5928999782	0.5896999836
72	630.3	27	1.0049999952	0.9754999876	0.8222000003	0.7699999809	0.5328000188	0.5473999977	0.6460999846	0.6409000158	0.6245999932	0.6294999719	0.625	0.6409999728	0.46450001	0.472600013	0.5938000083	0.5928999782
73	638	27	1.0051000118	0.9746000171	0.8213999867	0.7684999704	0.5304999948	0.5406000018	0.6463000178	0.6423000097	0.6258999705	0.6290000081	0.6245999932	0.6263999939	0.462500006	0.4914000034	0.5903999805	0.5920000076
74	645.8	27	1.0041999817	0.9736999869	0.8215000033	0.7688000202	0.5577999949	0.5475000143	0.644299984	0.6402999759	0.6251999736	0.6290000081	0.6248999834	0.641900003	0.4859000146	0.4862000048	0.5931000113	0.5903000236
75	653.5	27	1.0040999651	0.9717000127	0.8210999966	0.7655000091	0.5580000281	0.5666999817	0.6406999826	0.6360999942	0.6248000264	0.6312000155	0.6247000098	0.6457999945	0.4745000005	0.4754000008	0.5911999941	0.586499989
76	661.1	27	1.0041999817	0.9721000195	0.8215000033	0.766200006	0.5661000013	0.5382999778	0.6434999704	0.6367999911	0.6244000196	0.6290000081	0.6262000203	0.6463000178	0.4844000041	0.472600013	0.594900012	0.5910999775
77	668.8	27	1.002300024	0.9695000052	0.820200026	0.7641999722	0.5658000112	0.5569000244	0.6437000036	0.6362000108	0.6241000295	0.6279000044	0.6229000092	0.6394000053	0.5072000027	0.4909000099	0.5884000063	0.5904999971
78	676.5	27	1.003000021	0.9682000279	0.820299983	0.7642999887	0.5781000257	0.6083999872	0.644299984	0.638899982	0.6244000196	0.6286000013	0.6241999865	0.6431000233	0.5145999789	0.5286999941	0.592599988	0.5906000137
79	684.2	27	1.0036000013	0.9656000137	0.8210999966	0.763199985	0.5907999873	0.5845999718	0.641200006	0.6376000047	0.6252999902	0.6284999847	0.6244000196	0.6427999735	0.4832000136	0.5249999762	0.5892999768	0.5907999873
80	691.9	27	1.0029000044	0.9648000002	0.8217999935	0.7634999752	0.5597000122	0.5458999872	0.6439999938	0.6391000152	0.6238999963	0.6281999946	0.625	0.6453999877	0.4684000015	0.4691999853	0.5911999941	0.5911999941
81	699.6	27	1.0034999847	0.9648000002	0.8213000298	0.7617999911	0.5665000081	0.5123999715	0.6431999803	0.6345000267	0.6240000129	0.6302000284	0.6251000166	0.6424999833	0.477699995	0.5124999881	0.5931000113	0.5903000236
82	707.3	27	1.0010999441	0.9636999965	0.820900023	0.7613999844	0.5397999883	0.5579000115	0.6456999779	0.6363999844	0.6236000061	0.6259999871	0.6236000061	0.6238999963	0.4839000106	0.4907999933	0.5914999843	0.5963000059
83	715	27	1.003000021	0.9602000117	0.82099998	0.7612000108	0.5426999927	0.5062999725	0.6425999999	0.6378999949	0.6237999797	0.6281999946	0.6248000264	0.6427000165	0.4616000056	0.4722000062	0.5896999836	0.5913000107
84	722.7	26.9	1.0032000542	0.959800005	0.82099998	0.758400023	0.55400002	0.5019999743	0.6427000165	0.6335999966	0.6227999926	0.6284000278	0.6247000098	0.627399981	0.4738000035	0.5127999783	0.5940999985	0.5917999744
85	730.4	27	1.0026999712	0.9577999711	0.8213999867	0.75849998	0.5731999874	0.5264999866	0.6441000104	0.6338999867	0.6248000264	0.6292999983	0.625	0.6421999931	0.4927000105	0.502300024	0.590200007	0.5914999843
86	738.1	27	1.0016000271	0.9559000134	0.8205999732	0.757799983	0.5604000092	0.5433999896	0.6441000104	0.6369000077	0.6237000227	0.6284999847	0.6233999729	0.6378999949	0.467200011	0.4817000031	0.5921999812	0.5928000212
87	745.8	27	1.0041999817	0.9556999803	0.8183000088	0.7555000186	0.556400001	0.5411000252	0.6373999715	0.6345999837	0.6247000098	0.6288999915	0.6236000061	0.6423000097	0.4738000035	0.4862999916	0.5903999805	0.5920000076
88	753.5	27	1.0033999681	0.9521999955	0.82099998	0.7565000057	0.5608999729	0.5365999937	0.6456000209	0.6377999783	0.6244000196	0.6276999712	0.6240000129	0.6348000169	0.4627999961	0.4891000092	0.5921000242	0.5942999721
89	761.2	27	1.0012999773	0.9516999722	0.8197000027	0.7547000051	0.5329999924	0.529399991	0.6406999826	0.6316999793	0.622699976	0.6274999976	0.6248999834	0.6369000077	0.4740000069	0.4995000064	0.5942999721	0.5906000137
90	768.9	27	1.0020999908	0.951300025	0.8198000193	0.7551000118	0.5295000076	0.5483999848	0.6417000294	0.63349998	0.6252999902	0.6291000247	0.6245999932	0.6374999881	0.4623000026	0.4826999903	0.5896000266	0.5921000242
91	776.6	27.1	1.0026999712	0.9499999881	0.8212000132	0.7544000149	0.557099998	0.5361999869	0.6452999711	0.6371999979	0.6231999993	0.628000021	0.6262999773	0.6416000128	0.4916999936	0.4957999885	0.5960999727	0.5931000113
