Cycle 	Time	Temp	Pro0	Pro25	Pro50	Pro75	Pro100	Pro0_NoHIsF	Pro50_NoHisF	Pro100_NoHisF
1	0	28	0.4587000012	0.6090000272	0.5590000153	0.8392999768	0.9548000097	0.4663999975	0.5443000197	1.0582000017
2	38.3	28	0.4568000138	0.6065000296	0.5738999844	0.8386999965	0.9559000134	0.4665000141	0.5346999764	1.0319999456
3	76.6	28	0.4573999941	0.6047999859	0.5690000057	0.8374999762	0.9492999911	0.4670000076	0.5866000056	0.9679999948
4	114.8	28.2	0.4580999911	0.6021999717	0.5989999771	0.8342000246	0.9466000199	0.4686000049	0.551699996	0.9740999937
5	312.9	28	0.475300014	0.6183000207	0.584100008	0.8704000115	0.9438999891	0.4903999865	0.5827000141	0.997699976
6	351.1	28	0.4767000079	0.617200017	0.5562999845	0.867299974	0.9445000291	0.4889999926	0.5598999858	0.9950000048
7	389.4	27.9	0.4797999859	0.6230000257	0.6485999823	0.8762999773	0.9516000152	0.494599998	0.6093999743	1.0040999651
8	427.7	28	0.4765999913	0.6169999838	0.5770000219	0.8675000072	0.9477000237	0.4871000051	0.6014999747	1.0101000071
9	465.9	28	0.4763000011	0.6182000041	0.6074000001	0.8658000231	0.9467999935	0.4894999862	0.5684999824	0.997600019
10	504.2	28	0.4742999971	0.6184999943	0.6044999957	0.8697000146	0.9451000094	0.4907999933	0.5730000138	0.997699976
11	542.5	28	0.4751000106	0.6168000102	0.5832999945	0.8677999973	0.9460999966	0.4900999963	0.6075999737	0.997600019
12	580.8	27.9	0.4769999981	0.616599977	0.603399992	0.8648999929	0.9465000033	0.4902000129	0.5626000166	0.9955999851
13	619	28	0.4778000116	0.6168000102	0.5813000202	0.8615000248	0.9492999911	0.4894999862	0.597299993	0.9897999763
14	657.3	28	0.4765999913	0.6187999845	0.6040999889	0.8651000261	0.9480999708	0.4912	0.5720999837	0.9933000207
15	695.6	28	0.4763999879	0.6194999814	0.6093000174	0.8683999777	0.9502000213	0.4911000133	0.5849999785	0.9986000061
16	733.8	28	0.4781999886	0.6176000237	0.6039000154	0.861899972	0.949000001	0.4909000099	0.5820000172	0.9932000041
17	772.1	27.9	0.4772000015	0.6169999838	0.6115999818	0.8622999787	0.9477000237	0.4898000062	0.5666999817	0.994599998
18	810.4	27.9	0.4776000082	0.6173999906	0.5684000254	0.8626000285	0.9509999752	0.4898000062	0.5799000263	0.9914000034
19	848.7	28	0.4787999988	0.6182000041	0.5820999742	0.8630999923	0.9481999874	0.4898000062	0.5935999751	0.9948999882
20	967.5	27.8	0.4801000059	0.6254000068	0.6074000001	0.8655999899	0.9502999783	0.4880000055	0.5806000233	1.007799983
21	1005.8	28	0.4826000035	0.6261000037	0.613499999	0.8632000089	0.9492999911	0.4911000133	0.6107000113	0.992200017
22	1044	27.8	0.4819999933	0.6238999963	0.6223999858	0.8612999916	0.9498999715	0.4884000123	0.5964000225	0.9872999787
23	1082.3	27.8	0.4815999866	0.6279000044	0.5898000002	0.8690999746	0.9467999935	0.4930999875	0.5777999759	0.9972000122
24	1120.6	28	0.4835999906	0.6263999939	0.5649999976	0.8675000072	0.9498000145	0.4880000055	0.5681999922	1.0036000013
25	1158.9	28	0.4839999974	0.6243000031	0.5877000093	0.861899972	0.9498999715	0.4882999957	0.5727000237	0.9879999757
26	1197.2	27.9	0.4839999974	0.6261000037	0.6123999953	0.8687000275	0.948300004	0.4909999967	0.5899999738	0.9921000004
27	1235.4	28	0.4832000136	0.6251999736	0.5694000125	0.8661000133	0.9491999745	0.4921000004	0.5745000243	0.9961000085
28	1405.1	28	0.4796000123	0.5781999826	0.5422999859	0.8090000153	0.9090999961	0.4938000143	0.5662999749	0.9761000276
29	1443.3	28	0.4785999954	0.5717999935	0.5353999734	0.7904999852	0.8884000182	0.4941999912	0.6015999913	0.9678999782
30	1481.6	28	0.4769000113	0.5658000112	0.5381000042	0.7738000154	0.8708999753	0.4925999939	0.5637000203	0.9539999962
31	1519.8	28.2	0.4749000072	0.5630000234	0.5145000219	0.7651000023	0.8522999883	0.4952999949	0.5970000029	0.949000001
32	1558.1	28.2	0.474999994	0.5600000024	0.5454000235	0.7540000081	0.8393999934	0.4909999967	0.5866000056	0.9541000128
33	1596.4	28	0.4747999907	0.5569000244	0.5325999856	0.7430999875	0.8245000243	0.4930999875	0.5451999903	0.9207000136
34	1634.7	28	0.4742999971	0.5514000058	0.502300024	0.7344999909	0.8136000037	0.4903999865	0.6018000245	0.9085000157
35	1672.9	28.2	0.4747999907	0.5515000224	0.5167999864	0.7333999872	0.8026000261	0.4934999943	0.5687999725	0.9032999873
36	1711.2	28.2	0.4754000008	0.546299994	0.5392000079	0.7242000103	0.7929999828	0.4920000136	0.5932999849	0.8920000196
37	1749.5	28.2	0.4767000079	0.5447000265	0.5469999909	0.7203999758	0.7853999734	0.4912999868	0.5676000118	0.8838999867
38	1787.8	28.3	0.476000011	0.5404999852	0.5056999922	0.7178999782	0.7814999819	0.4914000034	0.5533999801	0.8756999969
39	1826	28.2	0.4702000022	0.5333999991	0.5415999889	0.7129999995	0.768599987	0.4839999974	0.5662000179	0.8788999915
40	1864.3	28.3	0.4749000072	0.5345000029	0.5152000189	0.7149000168	0.7641000152	0.4914999902	0.5630999804	0.8636000156
41	1902.6	28.2	0.4747999907	0.5313000083	0.4936999977	0.7081999779	0.7594000101	0.4898999929	0.5690000057	0.8532000184
42	1940.8	28.3	0.4745999873	0.5295000076	0.522300005	0.7106000185	0.7519999743	0.4914000034	0.5659999847	0.8549000025
43	1979.1	28.3	0.4731999934	0.5289999843	0.5152000189	0.7088999748	0.7465000153	0.4911000133	0.5710999966	0.8481000066
44	2017.4	28.3	0.4767999947	0.5253000259	0.4921000004	0.7050999999	0.7447999716	0.4909000099	0.5464000106	0.8431000113
45	2055.6	28.2	0.4756000042	0.5227000117	0.4934000075	0.6965000033	0.7396000028	0.4911000133	0.5584999919	0.8360000253
46	2093.9	28.2	0.4747000039	0.5228999853	0.4995000064	0.7026000023	0.7353000045	0.4880000055	0.5410000086	0.8518000245
47	2132.2	28.2	0.4751000106	0.5203999877	0.4975999892	0.6951000094	0.7333999872	0.488499999	0.5299999714	0.8440999985
48	2170.4	28.2	0.475699991	0.5171999931	0.4846999943	0.6904000044	0.728399992	0.4889999926	0.5501999855	0.8264999986
49	2208.7	28.2	0.4747000039	0.5170000196	0.4966000021	0.6923000216	0.7254999876	0.4902999997	0.5468999743	0.8255000114
50	2247	28.2	0.4742000103	0.5130000114	0.4909000099	0.6880000234	0.7202000022	0.4893000126	0.5414000154	0.8282999992
51	2285.3	28.2	0.4738000035	0.5135999918	0.5102999806	0.6869000196	0.7166000009	0.489199996	0.5644999743	0.8219000101
52	2323.5	28	0.47299999	0.5130000114	0.497299999	0.6833000183	0.7113999724	0.4889999926	0.5333999991	0.820200026
53	2361.8	28.2	0.4731000066	0.5130000114	0.4656000137	0.6819000244	0.7103999853	0.4887000024	0.5191000104	0.8152999878
54	2400.1	28.2	0.4745000005	0.5103999972	0.4902999997	0.6779999733	0.7063999772	0.489199996	0.527700007	0.815500021
55	2438.4	28.1	0.4747000039	0.5091000199	0.4772999883	0.6719999909	0.7045000196	0.4885999858	0.5198000073	0.8080999851
56	2476.6	28	0.4738999903	0.5101000071	0.4758999944	0.6772999763	0.6998999715	0.4887000024	0.5307000279	0.8104000092
57	2514.9	28	0.475300014	0.5098000169	0.4882000089	0.6729000211	0.6973999739	0.4896999896	0.519299984	0.8098999858
58	2553.2	28	0.4747999907	0.5091000199	0.4799999893	0.6697999835	0.6941000223	0.4876999855	0.5141000152	0.8050000072
59	2591.4	28	0.4699999988	0.5019999743	0.467599988	0.6596999764	0.6880000234	0.4814999998	0.5090000033	0.793900013
60	2629.7	28	0.4727999866	0.5085999966	0.4742000103	0.6664999723	0.6879000068	0.4878999889	0.5322999954	0.8019999862
61	2668	28.2	0.4742000103	0.5066000223	0.451000005	0.6611999869	0.6870999932	0.4878999889	0.5487999916	0.7983999848
62	2706.3	28	0.47299999	0.5070999861	0.4745000005	0.6650000215	0.6826999784	0.4871999919	0.5338000059	0.8014000058
63	2744.6	28.2	0.4744000137	0.506099999	0.467200011	0.6563000083	0.6819000244	0.486499995	0.5286999941	0.7936000228
64	2782.9	28.2	0.4747000039	0.506099999	0.4598999918	0.6553000212	0.6758000255	0.4882000089	0.5195000172	0.7979000211

