Cycle 	Time	Temp	FPro0	FPro25	FPro50	FPro75	FPro100	FPro0_NoHIsF	FPro50_NoHisF	FPro100_NoHisF
1	0	28	37521	36226	29370	34527	29409	41780	34929	30577
1	0	28.2	37553	36269	29029	33790	29087	41769	35216	30429
2	38.3	28.2	37072	36389	29765	33301	29541	41306	34315	29534
2	38.3	28.2	37698	36050	29575	34292	29730	41682	34749	29981
3	76.5	28.2	36910	36110	29182	33204	28808	41298	34263	29456
3	76.5	28.3	36882	36127	29720	33353	29582	41494	34802	29766
4	114.8	28.2	37236	36641	28806	33572	28275	40607	34839	28933
4	114.8	28.2	37562	36030	29302	34325	29558	39780	35492	29279
5	312.9	28	39326	37278	30574	34780	27826	41446	34678	29401
5	312.9	28	39501	37725	31493	35024	28234	41501	34815	29354
6	351.1	28	38545	37269	30684	34940	28063	40671	34342	29475
6	351.1	28	39362	37647	31499	34809	28230	41073	34476	29910
7	389.4	27.9	38482	37230	30818	34538	27597	39828	33986	29399
7	389.4	27.9	38656	37721	30932	34919	27913	41320	34952	29585
8	427.7	28	37934	36770	30399	34524	27293	40133	33504	28711
8	427.7	28	37720	37773	30850	34448	27787	40805	33491	29651
9	465.9	28	37227	35629	30085	34166	26966	38815	33108	28451
9	465.9	28.2	37890	36463	30270	34848	27783	39707	33676	29246
10	504.2	28	37289	36335	29943	33570	27034	39811	33309	27978
10	504.2	28	37391	37090	30654	33977	27260	39541	34027	29071
11	542.5	28	36835	36293	30259	33451	27260	39195	33255	28516
11	542.5	28.2	36538	37240	30489	34299	27406	38708	33716	28892
12	580.8	28	36097	35785	30104	33134	27095	38953	33388	28238
12	580.8	27.9	36641	35748	30143	33973	27687	39406	33441	29083
13	619	28	36528	36083	30065	33175	26386	39277	32808	28773
13	619	28	37038	36156	29807	34391	26947	39549	32793	28957
14	657.3	27.8	36130	35506	29683	33389	26952	39015	32976	28199
14	657.3	28	36263	35824	29935	33147	27156	39379	32599	29187
15	695.6	28	35941	35318	29309	33188	26423	38514	32190	28329
15	695.6	28	36626	35580	30018	33371	26889	38515	32821	28701
16	733.8	27.9	35825	35473	28982	33278	26584	38345	32313	27841
16	733.8	28	36044	35692	29595	32918	27017	38519	33094	28722
17	772.1	27.9	35167	35055	29108	32062	26442	37724	31953	27947
17	772.1	28	35682	35189	29633	32951	26857	37867	32772	28440
18	810.4	27.9	34867	34773	29259	31876	26149	37246	32665	27618
18	810.4	27.9	35417	35702	28765	33092	26573	37521	32522	27837
19	848.7	27.9	34477	34653	28465	32563	26510	37282	32103	27748
19	848.6	28	35281	34818	29483	33034	26934	38564	32888	27815
20	967.5	28	29160	29468	25353	30089	25363	36424	30902	27032
20	967.5	28	30210	30788	26131	30446	26633	37802	32118	28400
21	1005.8	27.9	26901	28884	24308	30116	25147	37488	31864	27989
21	1005.8	27.8	28684	28925	24140	30358	25607	37712	32010	27897
22	1044	27.9	25947	28094	22901	29122	25135	37096	31666	27287
22	1044	27.9	27196	28520	23165	29694	25145	37356	31670	28095
23	1082.3	27.9	25591	27711	22604	28939	24771	37216	31500	27847
23	1082.3	28	27611	28404	22698	29398	24604	36387	31228	27536
24	1120.6	28	25707	27373	22529	28898	24262	36444	31485	26928
24	1120.6	27.9	26716	27670	22708	29378	24573	37066	31660	27400
25	1158.9	27.9	25673	27122	22006	28604	24962	36091	31605	26882
25	1158.9	28	27309	28311	22802	28607	24334	36383	31156	27408
26	1197.1	28	25923	26893	22441	28193	23392	36634	31415	27524
26	1197.2	27.9	26516	28158	23014	28988	24167	36362	31815	27630
27	1235.4	28	25531	27007	22015	28815	23274	36364	31344	27430
27	1235.4	28	26816	27498	22464	28875	23954	36400	31686	27364
28	1405.1	27.9	25424	26890	22375	27819	22911	34080	30354	26434
28	1405	27.9	25678	26696	22450	27974	23594	34329	30508	26954
29	1443.3	28.2	24864	27028	22911	28335	23505	33146	29796	26485
29	1443.3	27.9	25092	27581	22926	28402	22995	33226	29305	26324
30	1481.6	28	24837	26904	22198	28456	23616	33545	29634	25993
30	1481.6	28.2	25086	26668	22679	28669	23775	33246	30156	26106
31	1519.8	28.2	24783	26338	22606	28366	23507	32275	29283	25326
31	1519.8	28	24478	26547	22828	28508	23581	32734	29285	25903
32	1558.1	28	24325	26338	22235	28987	23262	32352	29225	25610
32	1558.1	28.2	24600	26723	22658	29100	23713	32861	28803	26459
33	1596.4	28.2	24578	25754	22203	27922	23570	31873	28498	26845
33	1596.4	28.2	24738	26177	22410	28845	24000	32027	29161	26219
34	1634.7	28	24884	26152	22479	28951	23773	31966	28140	25457
34	1634.7	28.2	24424	26025	22517	29285	23667	31988	28411	25865
35	1672.9	28	24659	25910	22653	28772	23859	31005	28103	25701
35	1672.9	28.3	24727	25831	22672	28718	23696	32292	28595	25703
36	1711.2	28.2	24357	25507	22102	28784	23726	30938	27551	25702
36	1711.2	28.2	24273	26176	22539	28559	23508	31281	27583	25425
37	1749.5	28.3	24793	25090	22553	28958	23562	30891	27589	25187
37	1749.5	28.2	24860	25370	22711	29231	23856	30579	27718	25610
38	1787.7	28.2	24531	25067	22404	28830	24010	30251	27359	25470
38	1787.8	28.3	24664	24816	22647	28570	24017	30371	27305	25734
39	1826	28.2	24712	25132	22506	28797	24207	29474	26667	25711
39	1826	28.2	24236	24925	23078	28824	23971	30071	26972	25316
40	1864.3	28.2	24415	24764	22849	28742	23753	29849	26590	25531
40	1864.3	28.2	23945	24703	22434	28957	23666	29847	27008	25388
41	1902.6	28.3	24236	25046	22869	28056	24296	29545	26306	25417
41	1902.6	28.3	24066	24562	22640	28687	24218	29748	26190	25333
42	1940.8	28	24022	24818	22773	28656	24244	29459	25875	24914
42	1940.8	28.3	24392	24896	22473	28896	24496	28895	25762	25169
43	1979.1	28.3	24206	25253	22879	28931	24545	28488	25883	25026
43	1979.1	28.3	24212	24384	22628	28803	24577	29446	26020	24870
44	2017.4	28.2	24350	24724	22959	28864	24011	28342	25599	24891
44	2017.4	28.2	24395	24634	22752	28993	24480	28697	25934	25019
45	2055.6	28.2	24556	24910	22968	28408	24666	28013	25509	24945
45	2055.6	28.3	23876	24780	22876	28857	24607	28351	24816	24905
46	2093.9	28.2	24307	24966	22800	29054	24811	27777	25119	25131
46	2093.9	28	23997	25129	22505	28982	24449	28078	24670	24946
47	2132.2	28	24080	24524	23003	28778	24205	27367	24688	24781
47	2132.2	28.2	23952	24398	23243	28816	24448	28169	24847	25036
48	2170.4	28.3	23951	25050	22818	28983	25066	26948	24349	25262
48	2170.4	28	24205	24280	23223	28750	24767	28131	24548	24495
49	2208.7	28.2	23774	24934	23185	28841	24638	26456	24582	25053
49	2208.7	28.3	23880	24935	23347	29011	24694	26699	24379	24639
50	2247	28.2	24222	25001	23302	29434	24571	26732	23460	24506
50	2247	28.2	24688	25110	23444	29438	24707	26475	24547	24400
51	2285.3	28.2	24065	25171	23254	29208	24951	26343	23796	24419
51	2285.3	28	24494	24754	23551	29462	24909	26019	23937	24904
52	2323.5	28.3	23702	25186	23234	29479	24580	26136	23988	24452
52	2323.5	28	24258	25841	23238	29651	24784	26289	23778	25124
53	2361.8	28.2	23691	25105	23809	29573	24940	25754	23918	24752
53	2361.8	28.1	24166	23879	23234	29670	24724	25870	23255	24113
54	2400.1	28	24059	25000	23614	28922	24913	25990	23531	24492
54	2400.1	28	24429	24569	23536	29737	25005	25470	23610	24603
55	2438.4	28	24163	24809	23558	29460	24889	25289	23501	24875
55	2438.4	27.9	24059	25752	23533	29566	24963	25175	23329	25144
56	2476.6	28.2	23823	24413	23705	29479	25174	25371	23525	24859
56	2476.6	28	24315	25155	23794	29422	25239	24746	23126	24365
57	2514.9	28.2	24186	24517	23791	29755	24740	24507	23447	24232
57	2514.9	28.2	23867	24796	24112	29802	24927	24652	23061	24719
58	2553.2	28	23937	24705	23522	28616	24588	24093	22670	23760
58	2553.2	28	23964	25377	23946	29511	25523	24807	23145	24766
59	2591.4	27.9	24118	25362	23367	29976	24899	24166	23152	24399
59	2591.4	28.2	24137	25064	23339	29735	25339	24544	23249	24551
60	2629.7	28	24452	25311	23911	30322	25593	24622	22978	24843
60	2629.7	28.2	24238	25013	24073	29684	25222	24580	22702	24351
61	2668	28	24461	25335	23559	30273	24943	24238	23000	24716
61	2668	28	24371	24825	24202	30280	25175	24081	22665	24496
62	2706.3	28.2	24243	25559	24124	30095	25246	24199	22401	24684
62	2706.3	28	23884	24772	23910	29639	25265	24060	22580	24833
63	2744.6	28	23922	25033	24311	30134	25835	24170	22754	24346
63	2744.6	28	24358	25142	24111	29757	25465	23748	22349	24695
